Blade section properties
49	n_secs:	number of blade or tower sections at which properties are specified (-)

sec_loc	str_tw	tw_iner	mass_den	flp_iner	edge_iner	flp_stff	edge_stff	tor_stff	axial_stff	cg_offst	sc_offst	tc_offst
(-)	(deg)	(deg)	(kg/m)		(kg-m)		(kg-m)		(Nm^2)		(Nm^2)		(Nm^2)		(N)		(m)		(m)		(m)
0.00000	 13.235	 13.235	 678.93		 3472.13	  264.71	1.81E+10	1.81E+10	6.16E+09	8.83E+09	0.00E+00	0.00E+00	0.00E+00
0.02083	 13.235	 13.235	 678.93		 3777.75	  288.01	1.81E+10	1.81E+10	6.16E+09	8.83E+09	1.01E-01	-1.51E-02	0.00E+00
0.04167	 13.235	 13.235	 773.11		 4665.03	  355.65	1.94E+10	1.96E+10	6.63E+09	1.01E+10	2.10E-01	-3.15E-02	0.00E+00
0.06250	 13.235	 13.235	 740.33		 4829.69	  368.21	1.67E+10	1.96E+10	6.17E+09	9.62E+09	3.28E-01	-4.92E-02	0.00E+00
0.08333	 13.235	 13.235	 639.11		 1818.83	  297.72	1.20E+10	1.64E+10	4.13E+09	8.31E+09	4.54E-01	-6.81E-02	0.00E+00
0.10417	 13.235	 13.235	 447.18		 1001.06	  213.51	7.13E+09	1.01E+10	2.36E+09	5.81E+09	5.88E-01	-8.82E-02	0.00E+00
0.12500	 13.235	 13.235	 413.88		  709.88	  202.68	5.96E+09	8.70E+09	1.89E+09	5.38E+09	7.33E-01	-1.10E-01	0.00E+00
0.14583	 13.235	 13.235	 383.92		  506.19	  194.04	5.04E+09	7.01E+09	1.48E+09	4.99E+09	8.90E-01	-1.33E-01	0.00E+00
0.16667	 13.235	 13.235	 402.03		  388.43	  202.62	4.93E+09	7.02E+09	1.36E+09	5.23E+09	9.11E-01	-1.22E-01	0.00E+00
0.18750	 12.914	 12.914	 423.54		  266.72	  203.68	4.41E+09	7.23E+09	1.17E+09	5.51E+09	9.21E-01	-1.09E-01	0.00E+00
0.20833	 12.210	 12.210	 409.13		  181.60	  189.78	3.50E+09	7.15E+09	9.09E+08	5.32E+09	9.27E-01	-9.50E-02	0.00E+00
0.22917	 11.512	 11.512	 377.95		   50.90	  160.19	2.89E+09	6.11E+09	2.46E+08	4.91E+09	9.30E-01	-8.06E-02	0.00E+00
0.25000	 11.043	 11.043	 350.90		   32.77	  143.32	2.47E+09	4.99E+09	1.50E+08	4.56E+09	9.26E-01	-6.55E-02	0.00E+00
0.27083	 10.630	 10.630	 347.15		   28.10	  135.08	2.29E+09	4.84E+09	1.43E+08	4.51E+09	9.13E-01	-5.01E-02	0.00E+00
0.29167	 10.242	 10.242	 342.64		   24.23	  126.40	2.14E+09	4.63E+09	1.36E+08	4.45E+09	8.97E-01	-3.50E-02	0.00E+00
0.31250	  9.865	  9.865	 337.22		   22.06	  119.66	2.00E+09	4.44E+09	1.30E+08	4.38E+09	8.84E-01	-2.05E-02	0.00E+00
0.33333	  9.508	  9.508	 330.79		   18.86	  111.53	1.85E+09	4.27E+09	1.25E+08	4.30E+09	8.71E-01	-6.38E-03	0.00E+00
0.35417	  9.156	  9.156	 325.29		   15.93	  103.71	1.69E+09	4.10E+09	1.20E+08	4.23E+09	8.58E-01	7.32E-03	0.00E+00
0.37500	  8.790	  8.790	 320.10		   13.02	   95.64	1.53E+09	3.93E+09	1.16E+08	4.16E+09	8.44E-01	2.06E-02	0.00E+00
0.39583	  8.413	  8.413	 314.67		   10.13	   86.43	1.38E+09	3.77E+09	1.14E+08	4.09E+09	8.29E-01	3.34E-02	0.00E+00
0.41667	  8.030	  8.030	 302.07		    7.36	   75.43	1.21E+09	3.57E+09	1.12E+08	3.93E+09	8.14E-01	4.57E-02	0.00E+00
0.43750	  7.645	  7.645	 292.46		    6.05	   68.43	1.04E+09	3.37E+09	1.06E+08	3.80E+09	7.98E-01	5.74E-02	0.00E+00
0.45833	  7.253	  7.253	 287.84		    4.59	   62.39	8.90E+08	3.16E+09	1.00E+08	3.74E+09	7.82E-01	6.87E-02	0.00E+00
0.47917	  6.858	  6.858	 272.53		    3.43	   55.93	7.53E+08	2.88E+09	9.07E+07	3.54E+09	7.66E-01	7.94E-02	0.00E+00
0.50000	  6.471	  6.471	 260.00		    2.65	   51.49	6.37E+08	2.68E+09	8.28E+07	3.38E+09	7.50E-01	8.96E-02	0.00E+00
0.52083	  6.096	  6.096	 253.78		    2.32	   48.48	5.42E+08	2.57E+09	7.77E+07	3.30E+09	7.34E-01	9.94E-02	0.00E+00
0.54167	  5.728	  5.728	 246.66		    2.02	   45.52	4.54E+08	2.43E+09	7.22E+07	3.21E+09	7.19E-01	1.09E-01	0.00E+00
0.56250	  5.362	  5.362	 236.52		    1.73	   42.21	3.79E+08	2.21E+09	6.47E+07	3.07E+09	7.03E-01	1.18E-01	0.00E+00
0.58333	  4.991	  4.991	 221.55		    1.36	   38.53	3.18E+08	1.84E+09	5.41E+07	2.88E+09	6.88E-01	1.26E-01	0.00E+00
0.60417	  4.620	  4.620	 207.90		    1.04	   35.28	2.65E+08	1.67E+09	4.84E+07	2.70E+09	6.73E-01	1.34E-01	0.00E+00
0.62500	  4.256	  4.256	 193.88		    0.75	   32.46	2.19E+08	1.50E+09	4.25E+07	2.52E+09	6.57E-01	1.41E-01	0.00E+00
0.64583	  3.905	  3.905	 179.96		    0.60	   29.27	1.78E+08	1.33E+09	3.68E+07	2.34E+09	6.42E-01	1.48E-01	0.00E+00
0.66667	  3.559	  3.559	 169.74		    0.47	   26.87	1.40E+08	1.23E+09	3.30E+07	2.21E+09	6.27E-01	1.54E-01	0.00E+00
0.68750	  3.232	  3.232	 161.70		    0.37	   24.93	1.19E+08	1.14E+09	2.97E+07	2.10E+09	6.11E-01	1.60E-01	0.00E+00
0.70833	  2.941	  2.941	 154.67		    0.29	   23.25	1.08E+08	1.02E+09	2.62E+07	2.01E+09	5.96E-01	1.66E-01	0.00E+00
0.72917	  2.683	  2.683	 144.02		    0.21	   21.10	9.64E+07	8.64E+08	2.18E+07	1.87E+09	5.80E-01	1.71E-01	0.00E+00
0.75000	  2.442	  2.442	 135.86		    0.15	   19.40	8.61E+07	7.66E+08	1.89E+07	1.77E+09	5.65E-01	1.75E-01	0.00E+00
0.77083	  2.196	  2.196	 129.69		    0.14	   17.52	7.65E+07	7.11E+08	1.74E+07	1.69E+09	5.50E-01	1.79E-01	0.00E+00
0.79167	  1.948	  1.948	 114.04		    0.11	   14.55	6.59E+07	5.74E+08	1.42E+07	1.48E+09	5.34E-01	1.82E-01	0.00E+00
0.81250	  1.701	  1.701	 103.89		    0.10	   12.51	5.69E+07	4.92E+08	1.22E+07	1.35E+09	5.19E-01	1.85E-01	0.00E+00
0.83333	  1.453	  1.453	  98.76		    0.09	   11.21	4.95E+07	4.55E+08	1.11E+07	1.28E+09	5.04E-01	1.88E-01	0.00E+00
0.85417	  1.202	  1.202	  93.42		    0.07	   10.06	4.26E+07	4.16E+08	1.01E+07	1.21E+09	4.89E-01	1.90E-01	0.00E+00
0.87500	  0.952	  0.952	  85.57		    0.05	    8.82	3.61E+07	3.68E+08	8.73E+06	1.11E+09	4.74E-01	1.92E-01	0.00E+00
0.89583	  0.708	  0.708	  72.76		    0.02	    7.20	3.03E+07	3.04E+08	7.02E+06	9.46E+08	4.57E-01	1.92E-01	0.00E+00
0.91667	  0.459	  0.459	  67.11		    0.04	    5.76	2.47E+07	2.69E+08	6.50E+06	8.72E+08	4.38E-01	1.91E-01	0.00E+00
0.93750	  0.265	  0.265	  54.48		    0.03	    4.10	1.46E+07	1.30E+08	3.19E+06	7.08E+08	4.10E-01	1.86E-01	0.00E+00
0.95833	  0.124	  0.124	  45.48		    0.02	    2.57	7.29E+06	8.33E+07	2.00E+06	5.91E+08	3.55E-01	1.66E-01	0.00E+00
0.97917	  0.029	  0.029	  10.45		    0.00	    0.36	1.79E+05	5.19E+06	1.19E+05	1.36E+08	2.78E-01	1.35E-01	0.00E+00
1.00000	  0.000	  0.000	  10.32		    0.00	    0.17	4.09E+06	8.81E+07	2.04E+06	1.34E+08	1.92E-01	9.61E-02	0.00E+00
